"Plot5"
"Time (sec)","Linear Displacement3 (mm)"
0,0.00123924789738328
0.04,1.96617707046154e-05
0.08,0.000558830175835523
0.12,0.00296314264219832
0.16,0.00710766136243629
0.2,0.0129984274348099
0.24,0.0206558442490817
0.28,0.0300775807710318
0.32,0.041258638528982
0.36,0.0541930257874912
0.4,0.0688738697107935
0.44,0.0852934345910786
0.48,0.103443135541635
0.52,0.123313553118627
0.56,0.144894449102144
0.6,0.168174783480149
0.64,0.193142732539772
0.68,0.219785708015202
0.72,0.248090377234791
0.76,0.278042684203735
0.8,0.309627871556813
0.84,0.342830503315204
0.88,0.377634488378922
0.92,0.414023104686342
0.96,0.451979023970803
1,0.491484337044497
1.04,0.532520579539647
1.08,0.575068758056567
1.12,0.619109376534546
1.16,0.664622463057339
1.2,0.711587596664898
1.24,0.75998393436319
1.28,0.809790238173944
1.32,0.86098490217229
1.36,0.913545979456198
1.4,0.967451208984907
1.44,1.02267804223453
1.48,1.07920366961577
1.52,1.13700504660132
1.56,1.19605891951977
1.6,1.25634185096514
1.64,1.31783024478374
1.68,1.38050037059718
1.72,1.44432838782546
1.76,1.50929036917712
1.8,1.57536232357463
1.84,1.64252021848871
1.88,1.71074000165632
1.92,1.77999762216033
1.96,1.85026905085196
2,1.92153030009965
2.04,1.99375744285058
2.08,2.06692663099384
2.12,2.14101411301639
2.16,2.21599625094577
2.2,2.29184953657532
2.24,2.36855060697011
2.28,2.44607625925403
2.32,2.52440346467957
2.36,2.60350938198498
2.4,2.6833713700436
2.44,2.76396699981349
2.48,2.84527406559518
2.52,2.92727059560809
2.56,3.00993486189671
2.6,3.093245389579
2.64,3.17718096545017
2.68,3.26172064595638
2.72,3.34684376455346
2.76,3.43252993846616
2.8,3.51875907486473
2.84,3.60551137647556
2.88,3.69276734664312
2.92,3.78050779386128
2.96,3.86871383579163
3,3.9573669027872
3.04,4.04644874093975
3.08,4.13594141466937
3.12,4.22582730887405
3.16,4.31608913065853
3.2,4.40670991065981
3.24,4.4976730039879
3.28,4.58896209079949
3.32,4.68056117652255
3.36,4.77245459174869
3.4,4.86462699181092
3.44,4.95706335606312
3.48,5.04974898687909
3.52,5.1426695083845
3.56,5.23581086493993
3.6,5.32915931938845
3.64,5.42270145108549
3.68,5.51642415372173
3.72,5.61031463295525
3.76,5.70436040386595
3.8,5.79854928824553
3.84,5.89286941173524
3.88,5.98730920082433
3.92,6.08185737971986
3.96,6.17650296710046
4,6.27123527276378
4.04,6.36604389417875
4.08,6.46091871295255
4.12,6.55584989122133
4.16,6.65082786797458
4.2,6.74584335532125
4.24,6.84088733470636
4.28,6.93595105308589
4.32,7.03102601906744
4.36,7.126103999024
4.4,7.22117701318718
4.44,7.31623733172761
4.48,7.41127747082682
4.52,7.50629018874758
4.56,7.60126848190983
4.6,7.69620558097167
4.64,7.79109494692791
4.68,7.8859302672256
4.72,7.98070545190135
4.76,8.07541462974803
4.8,8.17005214451134
4.84,8.26461255111752
4.88,8.35909061194373
4.92,8.45348129312631
4.96,8.54777976091388
5,8.64198137806679
5.04,8.54641750464165
5.08,8.45353235816133
5.12,8.35909141474916
5.16,8.26461224551257
5.2,8.17005186661585
5.24,8.07541435127113
5.28,7.98070517064494
5.32,7.88592998306375
5.36,7.79109465986302
5.4,7.69620529101296
5.44,7.6012681890672
5.48,7.50628989303063
5.52,7.41127717224486
5.56,7.31623703029102
5.6,7.22117670890557
5.64,7.12610369190716
5.68,7.03102570912565
5.72,6.93595074033065
5.76,6.84088701914803
5.8,6.74584303697152
5.84,6.6508275468458
5.88,6.55584956732657
5.92,6.46091838630578
5.96,6.3660435647949
6,6.27123494065888
6.04,6.17650263229173
6.08,6.08185704222587
6.12,5.98730886066495
6.16,5.89286906893201
6.2,5.79854894282152
6.24,5.70436005584619
6.28,5.61031428236652
6.32,5.51642380059289
6.36,5.42270109544753
6.4,5.3291589612746
6.44,5.23581050438596
6.48,5.14266914542868
6.52,5.049748621562
6.56,4.95706298842828
6.6,4.86462662190504
6.64000000000001,4.77245421962182
6.68000000000001,4.6805608022276
6.72000000000001,4.58896171439273
6.76000000000001,4.49767262552904
6.80000000000001,4.40670953021229
6.84000000000001,4.31608874828936
6.88000000000001,4.22582692465425
6.92000000000001,4.13594102867389
6.96000000000001,4.04644835324774
7.00000000000001,3.95736651348201
7.04000000000001,3.86871344496105
7.08000000000001,3.78050740159757
7.12000000000001,3.69276695304312
7.16000000000001,3.60551098164095
7.20000000000001,3.51875867890194
7.24000000000001,3.4325295414863
7.28000000000001,3.34684336667328
7.32000000000001,3.26172024729745
7.36000000000001,3.17718056613916
7.40000000000001,3.09324498974804
7.44000000000001,3.0099344616831
7.48000000000001,2.92727019515462
7.52000000000001,2.84527366505009
7.56000000000001,2.76396659933047
7.60000000000001,2.68337096978182
7.64000000000001,2.60350898210914
7.68000000000001,2.52440306535986
7.72000000000001,2.44607586066617
7.76000000000001,2.36855020929526
7.80000000000001,2.29184914000006
7.84000000000001,2.21599585566206
7.88000000000001,2.14101371922143
7.92000000000001,2.06692623889008
7.96000000000001,1.99375705264551
8.00000000000001,1.92152991200577
8.04,1.85026866508655
8.08,1.77999723894533
8.12,1.7107396212181
8.16,1.64251984105799
8.2,1.57536194938609
8.24,1.50928999846935
8.28,1.4443280208405
8.32,1.38050000758036
8.36,1.31782988598321
8.4,1.25634149663233
8.44,1.19605856990777
8.48,1.13700470196548
8.51999999999999,1.07920333021291
8.55999999999999,1.02267770832293
8.59999999999999,0.967450880823145
8.63999999999999,0.913545657303595
8.67999999999999,0.860984586288034
8.71999999999999,0.809789928816654
8.75999999999999,0.759983631790639
8.79999999999999,0.711587301133146
8.83999999999999,0.664622174820606
8.87999999999999,0.619109095844644
8.91999999999999,0.575068485163352
8.95999999999998,0.532520314695646
8.99999999999998,0.491484080473101
9.03999999999998,0.451978775917738
9.07999999999998,0.414022865383903
9.11999999999998,0.377634258053337
9.15999999999998,0.342830282186554
9.19999999999998,0.309627659838649
9.23999999999998,0.278042482102434
9.27999999999998,0.248090184949167
9.31999999999998,0.219785525735934
9.35999999999998,0.193142560449049
9.39999999999998,0.168174621751088
9.43999999999997,0.144894297898462
9.47999999999997,0.123313412593987
9.51999999999997,0.103443005838214
9.55999999999997,0.0852933158387095
9.59999999999997,0.0688737620364727
9.63999999999997,0.0541929293036841
9.67999999999997,0.0412585533737728
9.71999999999997,0.0300775074929399
9.75999999999997,0.0206557904898
9.79999999999997,0.0129985160939455
9.83999999999997,0.00710990370038356
9.87999999999997,0.00299327054603671
9.91999999999996,0.000651025323393506
9.95999999999996,8.46632989617846e-05
9.99999999999996,0.00129476283586283
10.04,0.00428098360405471
10.08,0.0090420659363058
10.12,0.0155758321689486
10.16,0.0238791890466716
10.2,0.0339481318923363
10.24,0.045777750124848
10.28,0.0593622342978523
10.32,0.0746948845344042
10.36,0.091768120381211
10.4,0.110573492034687
10.44,0.131101692874599
10.48,0.153342573328233
10.52,0.177285155943077
10.56,0.202917651661347
10.5999999999999,0.230227477234411
10.6399999999999,0.259201273717848
10.6799999999999,0.289824925988828
10.7199999999999,0.322083583222957
10.7599999999999,0.355961680285871
10.7999999999999,0.391442959867039
10.8399999999999,0.428510495540602
10.8799999999999,0.467146715370063
10.9199999999999,0.507333426199491
10.9599999999999,0.549051838493422
10.9999999999999,0.592282591659436
11.0399999999999,0.63700577978465
11.0799999999999,0.683200977717409
11.1199999999999,0.730847267424825
11.1599999999999,0.779923264559036
11.1999999999999,0.830407145164989
11.2399999999999,0.882276672465647
11.2799999999999,0.935509223660404
11.3199999999999,0.990081816676536
11.3599999999999,1.04597113681336
11.3999999999999,1.10315356322343
11.4399999999999,1.16160519517536
11.4799999999999,1.22130187804726
11.5199999999999,1.28221922900116
11.5599999999999,1.3443326622921
11.5999999999999,1.40761741416873
11.6399999999999,1.4720485673245
11.6799999999999,1.53760107486173
11.7199999999999,1.60424978373423
11.7599999999999,1.67196945763599
11.7999999999999,1.74073479930827
11.8399999999999,1.81052047223754
11.8799999999999,1.88130112172304
11.9199999999999,1.95305139529217
11.9599999999999,2.02574596244754
11.9999999999999,2.0993595337296
12.0399999999999,2.1738668790835
12.0799999999999,2.24924284552221
12.1199999999999,2.32546237407259
12.1599999999999,2.40250051600836
12.1999999999999,2.48033244835861
12.2399999999999,2.55893348869816
12.2799999999999,2.63827910921591
12.3199999999999,2.71834495006755
12.3599999999999,2.79910683201602
12.3999999999999,2.88054076836679
12.4399999999999,2.96262297620609
12.4799999999999,3.04532988695118
12.5199999999999,3.12863815622391
12.5599999999999,3.21252467305884
12.5999999999999,3.29696656845966
12.6399999999999,3.38194122331689
12.6799999999999,3.46742627570264
12.7199999999999,3.55339962755682
12.7599999999999,3.63983945078237
12.7999999999999,3.7267241927644
12.8399999999999,3.81403258133241
12.8799999999999,3.90174362918139
12.9199999999999,3.9898366377711
12.9599999999999,4.07829120072036
12.9999999999999,4.1670872067161
13.0399999999999,4.25620484195374
13.0799999999999,4.34562459212939
13.1199999999999,4.43532724399992
13.1599999999999,4.52529388653167
13.1999999999999,4.61550591165377
13.2399999999999,4.70594501463584
13.2799999999999,4.79659319410649
13.3199999999999,4.88743275173156
13.3599999999999,4.97844629156798
13.3999999999999,5.06961671911162
13.4399999999999,5.16092724005471
13.4799999999999,5.25236135876986
13.5199999999999,5.34390287653618
13.5599999999999,5.43553588952371
13.5999999999999,5.52724478654969
13.6399999999999,5.61901424662552
13.6799999999999,5.71082923630121
13.7199999999999,5.80267500683038
13.7599999999999,5.89453709116226
13.7999999999999,5.98640130077727
13.8399999999999,6.078253722377
13.8799999999999,6.17008071444266
13.9199999999999,6.2618689036716
13.9599999999999,6.3536051812877
13.9999999999999,6.44527669933767
14.0399999999999,6.53687086673524
14.0799999999999,6.62837534538115
14.1199999999999,6.71977804614861
14.1599999999999,6.81106712481607
14.1999999999999,6.90223097795274
14.2399999999999,6.99325823876134
14.2799999999999,7.08413777288859
14.3199999999999,7.1748586742091
14.3599999999999,7.26541026059185
14.3999999999999,7.35578206965494
14.4399999999999,7.44596385451711
14.4799999999999,7.5359455795509
14.5199999999999,7.62571741614388
14.5599999999999,7.71526973847669
14.5999999999999,7.80459311931875
14.6399999999999,7.89367832585109
14.6799999999999,7.98251631551983
14.7199999999999,8.07109823192506
14.7599999999999,8.15941540075115
14.7999999999999,8.24745932574076
14.8399999999999,8.33522168471971
14.8799999999999,8.42269432567391
14.9199999999999,8.50986926288494
14.9599999999999,8.59673867312567
15,8.6832948919218
